#WAVELENGTH FLUX
1001.0 4.903242915921666e-17
1002.0 4.90324395951513e-17
1003.0 4.9032450146125126e-17
1004.0 4.9032460953153933e-17
1005.0 4.9032471979471707e-17
1006.0 4.903248322626086e-17
1007.0 4.903249480422474e-17
1008.0 4.903250654253266e-17
1009.0 4.903251850226807e-17
1010.0 4.903253074370398e-17
1011.0 4.9032543123887906e-17
1012.0 4.903255580583197e-17
1013.0 4.9032568596224107e-17
1014.0 4.90325817779187e-17
1015.0 4.903259516472647e-17
1016.0 4.903260870452982e-17
1017.0 4.9032622276185556e-17
1018.0 4.9032635980276906e-17
1019.0 4.9032648839345686e-17
1020.0 4.9032660233981864e-17
1021.0 4.903266866032969e-17
1022.0 4.9032670286875344e-17
1023.0 4.9032657600481886e-17
1024.0 4.903262199045085e-17
1025.0 4.903259228959607e-17
1026.0 4.9032643376267135e-17
1027.0 4.903271257437123e-17
1028.0 4.903276320915456e-17
1029.0 4.903279844845386e-17
1030.0 4.9032826743244126e-17
1031.0 4.903285262092627e-17
1032.0 4.903287574729213e-17
1033.0 4.9032898014841276e-17
1034.0 4.903291975175609e-17
1035.0 4.903294154166904e-17
1036.0 4.9032964115504145e-17
1037.0 4.9032987107787156e-17
1038.0 4.9033010254838575e-17
1039.0 4.9033033401889994e-17
1040.0 4.903305672783536e-17
1041.0 4.9033080586172777e-17
1042.0 4.903310483343296e-17
1043.0 4.903312971114976e-17
1044.0 4.9033154588866574e-17
1045.0 4.903318032629676e-17
1046.0 4.903320652664952e-17
1047.0 4.90332330075334e-17
1048.0 4.9033260427586644e-17
1049.0 4.903328784763988e-17
1050.0 4.903331631950074e-17
1051.0 4.903334552042683e-17
1052.0 4.9033375335608e-17
1053.0 4.90334057897617e-17
1054.0 4.9033436283823425e-17
1055.0 4.903346781325738e-17
1056.0 4.90335001148289e-17
1057.0 4.903353279060701e-17
1058.0 4.9033566428854924e-17
1059.0 4.903360023695045e-17
1060.0 4.903363489930754e-17
1061.0 4.903367004218677e-17
1062.0 4.903370577468542e-17
1063.0 4.903374225760878e-17
1064.0 4.903377946646333e-17
1065.0 4.9033817526793163e-17
1066.0 4.903385617534616e-17
1067.0 4.90338956698165e-17
1068.0 4.903393570288062e-17
1069.0 4.903397674854649e-17
1070.0 4.903401875791004e-17
1071.0 4.903406239445852e-17
1072.0 4.9034106031007e-17
1073.0 4.903415102360591e-17
1074.0 4.903419650665614e-17
1075.0 4.903424353860699e-17
1076.0 4.903429102828657e-17
1077.0 4.903433956951413e-17
1078.0 4.903438944907547e-17
1079.0 4.903443932863681e-17
1080.0 4.903449025871987e-17
1081.0 4.903454177972139e-17
1082.0 4.903459361493327e-17
1083.0 4.9034646787043e-17
1084.0 4.903470116592355e-17
1085.0 4.9034757209416194e-17
1086.0 4.903481358274517e-17
1087.0 4.903487107295396e-17
1088.0 4.90349293535204e-17
1089.0 4.90349890391671e-17
1090.0 4.9035050472539535e-17
1091.0 4.9035112932354074e-17
1092.0 4.903517722507803e-17
1093.0 4.903524201715113e-17
1094.0 4.9035308347434e-17
1095.0 4.903537585118345e-17
1096.0 4.903544481383254e-17
1097.0 4.9035514610345913e-17
1098.0 4.903558598159966e-17
1099.0 4.9035658641277356e-17
1100.0 4.903573243601384e-17
1101.0 4.9035806897372164e-17
1102.0 4.9035881358730486e-17
1103.0 4.9035958453261593e-17
1104.0 4.9036036702206603e-17
1105.0 4.903611721803395e-17
1106.0 4.90361982146179e-17
1107.0 4.903628040655798e-17
1108.0 4.9036365138629823e-17
1109.0 4.903644987070167e-17
1110.0 4.9036538499123563e-17
1111.0 4.903663074416553e-17
1112.0 4.90367229892075e-17
1113.0 4.903681846429236e-17
1114.0 4.903691418249872e-17
1115.0 4.9037012677285654e-17
1116.0 4.903711287384777e-17
1117.0 4.903721410571263e-17
1118.0 4.903731753759581e-17
1119.0 4.9037422202164856e-17
1120.0 4.9037529427706705e-17
1121.0 4.903763915297591e-17
1122.0 4.9037750895282545e-17
1123.0 4.9037864230261287e-17
1124.0 4.9037978213566854e-17
1125.0 4.9038092849129285e-17
1126.0 4.903820875106536e-17
1127.0 4.903832610863433e-17
1128.0 4.9038446333245324e-17
1129.0 4.903856928111989e-17
1130.0 4.9038694207365004e-17
1131.0 4.9038820346159814e-17
1133.0 2.008170877686206e-18
1134.0 6.889208624876176e-17
1135.0 7.567249378286902e-17
1140.0 8.863160154831038e-18
1141.0 3.486007659163567e-17
1148.0 1.0278251275017488e-17
1149.0 2.5901715559522497e-17
1151.0 1.9290695415156287e-17
1152.0 2.741060761778215e-18
1156.0 2.5475963935749096e-17
1157.0 6.0130373629592835e-18
1159.0 9.937941306132453e-18
1162.0 5.189879637621181e-19
1163.0 1.7634398221164372e-17
1164.0 1.1875419557482806e-17
1166.0 2.039056687961543e-17
1167.0 3.784895774354004e-17
1169.0 4.419446295567458e-17
1171.0 1.7655233946021398e-17
1172.0 3.55053234955026e-17
1173.0 1.2211790659153135e-17
1174.0 2.945028411944751e-17
1175.0 2.562857076630719e-16
1176.0 6.412785942782327e-16
1177.0 2.3168559689409567e-17
1181.0 2.458351185387122e-18
1183.0 1.88711219973974e-17
1189.0 2.3833936489939527e-17
1190.0 2.252975118495502e-17
1193.0 1.7089988037844333e-17
1194.0 1.8428310743937206e-17
1197.0 5.656324137346897e-17
1198.0 4.165515072505198e-17
1199.0 1.8787856278598066e-17
1200.0 5.2959358612836675e-17
1201.0 5.690814369512037e-17
1202.0 1.71431871094422e-17
1203.0 1.1158756131843276e-17
1204.0 3.6524561743391295e-17
1205.0 4.96346656149463e-17
1206.0 2.3854899255196146e-16
1207.0 4.634534346025035e-16
1208.0 1.1246842848545102e-15
1209.0 1.9478774006890823e-15
1211.0 5.532344610311421e-16
1212.0 9.007877373334257e-16
1213.0 1.7240478586121147e-15
1214.0 4.598862334224675e-15
1215.0 3.699925994390789e-14
1216.0 8.022801758842552e-14
1217.0 7.545212391137907e-15
1218.0 2.2834741192945778e-15
1219.0 1.09754546757718e-15
1220.0 6.444728933608917e-16
1221.0 4.2382950328456784e-16
1222.0 2.9990114937637927e-16
1223.0 3.093631998100523e-17
1224.0 3.220164096772873e-17
1225.0 4.110667074458589e-17
1226.0 1.1849613133588163e-17
1227.0 1.9718678395601056e-18
1228.0 3.0923445195044564e-18
1230.0 7.05781710798425e-18
1232.0 2.2542388536846417e-18
1234.0 1.0447507242725611e-18
1235.0 1.0633415287316698e-17
1236.0 1.4459601629783453e-17
1237.0 3.619823200563346e-18
1238.0 3.719973067499618e-17
1239.0 4.432440835523205e-16
1240.0 2.679648984691924e-17
1241.0 1.5288592565235585e-17
1242.0 3.3389454495069836e-17
1243.0 2.4031757586662945e-16
1247.0 7.531815882235941e-18
1248.0 3.4650780107102136e-18
1249.0 4.871614722199029e-18
1250.0 1.616407544071708e-19
1251.0 4.3019291738211385e-18
1254.0 1.966085707941611e-17
1256.0 2.4825996543576513e-17
1257.0 1.3896764918470993e-17
1258.0 3.636027862937414e-17
1259.0 3.272561398878044e-17
1260.0 5.912244496733062e-17
1261.0 5.878486668687237e-17
1262.0 2.818520423643298e-18
1264.0 2.4881891879533932e-19
1265.0 6.043179847597174e-17
1266.0 4.436520434911089e-17
1267.0 6.356483161315368e-18
1269.0 1.4125847139495225e-17
1270.0 1.3063594000906045e-17
1271.0 2.310070313966111e-17
1273.0 5.552343453293621e-18
1274.0 1.721765709066285e-17
1288.0 5.309896631201521e-17
1289.0 1.504524004177365e-17
1291.0 4.000999929885655e-18
1294.0 2.5006241905047715e-17
1295.0 4.5250917461971127e-17
1297.0 1.045903366238286e-18
1299.0 8.066943261874431e-17
1300.0 1.3228029552952129e-17
1301.0 1.7933217869361063e-17
1302.0 2.1341408394025032e-17
1303.0 2.3452641155368252e-17
1304.0 2.4266872312780557e-17
1305.0 2.3784136900406285e-17
1306.0 2.2004425253426137e-17
1307.0 1.8927712002672336e-17
1308.0 1.4553997148459417e-17
1309.0 8.883280690158319e-18
1310.0 1.5348651561097452e-18
1314.0 2.029976935354648e-18
1315.0 4.6860375761900165e-17
1316.0 1.1713091672615043e-17
1318.0 1.2275467266058077e-17
1324.0 7.400407211103562e-18
1329.0 2.5348626672818644e-17
1334.0 3.926825166777199e-17
1335.0 3.831343326779755e-16
1336.0 6.691645987076118e-16
1355.0 4.1113856407821876e-18
1356.0 1.5381532738121835e-17
1357.0 3.018934025787775e-17
1366.0 2.0999169954449613e-17
1368.0 3.7229928358990395e-18
1369.0 1.2784175440770171e-17
1371.0 4.388289213886646e-17
1372.0 2.3367100240866792e-17
1373.0 1.1281829056680199e-17
1375.0 1.1746028468431067e-17
1376.0 4.178949561704576e-18
1378.0 2.5380855123651965e-18
1379.0 3.1029291449847943e-18
1380.0 3.512491837877213e-19
1381.0 2.3934835025271347e-17
1384.0 5.446110352105668e-18
1385.0 3.0623636561385775e-17
1386.0 2.81408272581366e-17
1389.0 4.917580431963809e-17
1390.0 1.784005669119674e-18
1392.0 6.167443591333003e-17
1393.0 1.6072368922998688e-17
1394.0 5.225585905703806e-16
1395.0 3.620541814362668e-17
1396.0 2.4612369827849617e-17
1399.0 7.604954873955635e-18
1400.0 2.2289744924174965e-17
1403.0 3.177397133605188e-16
1405.0 2.127370398765492e-17
1406.0 2.870732038993705e-17
1407.0 1.708347765233501e-17
1409.0 1.520913361081576e-17
1410.0 1.2364191898541243e-17
1413.0 2.1891536126190577e-17
1414.0 4.8173191550950503e-17
1415.0 5.726557223809654e-17
1416.0 2.0544797660717808e-17
1417.0 4.190248883471004e-17
1420.0 1.0842753164258912e-17
1421.0 6.525871749746594e-17
1423.0 1.4022424158373254e-17
1425.0 8.790462423726287e-18
1427.0 6.886985166296269e-17
1429.0 3.323964790638797e-17
1430.0 2.6060477622331796e-18
1431.0 7.987022233697092e-18
1434.0 2.5877444431984793e-17
1436.0 3.8171255819708296e-18
1437.0 6.2802074148795896e-18
1438.0 4.5108794570142176e-17
1440.0 2.2675414647852208e-17
1441.0 1.683487183517423e-17
1444.0 4.936976303032308e-17
1446.0 6.729524660006261e-17
1448.0 2.2097400653171185e-17
1453.0 4.4419702582743245e-18
1454.0 4.3265747135521966e-18
1455.0 2.9293965719879486e-17
1456.0 4.002319094638181e-18
1458.0 1.2912095352237614e-17
1459.0 1.809139481963769e-17
1460.0 4.203235555772439e-17
1466.0 4.340482214837599e-17
1467.0 1.7437303826507014e-17
1468.0 2.6209681793591293e-17
1469.0 1.648346072920402e-17
1470.0 4.7284061092499794e-17
1471.0 1.0325094288651583e-17
1472.0 2.625964465047414e-17
1474.0 5.1999633573993705e-17
1475.0 1.0289337745732662e-17
1477.0 7.970431723875386e-18
1478.0 2.785841701643959e-17
1481.0 3.1714027463313805e-17
1482.0 7.153725669005185e-17
1483.0 2.4003031085864215e-17
1484.0 2.4674599191946078e-17
1485.0 4.579478191128675e-17
1486.0 1.1537210400467273e-17
1487.0 4.337194717906724e-17
1490.0 5.1806249728926643e-17
1491.0 1.7523757432145492e-17
1492.0 1.7287958160370826e-17
1495.0 1.7226366863213653e-17
1496.0 6.898778431395797e-17
1497.0 2.1274603874079083e-17
1498.0 6.821858464131305e-17
1499.0 2.4067691434815872e-17
1500.0 5.4817907787146877e-17
1501.0 6.784259166109866e-17
1504.0 2.319173226276328e-17
1505.0 9.01521215272823e-17
1506.0 6.363965242698347e-18
1508.0 6.369873414907223e-17
1509.0 3.5746682357285184e-17
1510.0 3.547810966276487e-17
1511.0 4.491980169942357e-17
1512.0 1.7830966397350222e-17
1513.0 2.986796322833092e-17
1517.0 5.009020060672717e-17
1530.0 1.1574190403859353e-16
1531.0 1.350380242448165e-16
1532.0 1.840169994027771e-17
1538.0 2.5491640988643644e-18
1540.0 6.519583019118878e-17
1542.0 3.219178249839516e-17
1544.0 5.036607214733901e-17
1547.0 4.88700091011096e-17
1548.0 1.791232293879525e-15
1549.0 1.463134465539219e-16
1550.0 9.295992210052099e-17
1551.0 1.0865398342985188e-15
1552.0 1.8343447617107167e-17
1558.0 3.1473359548274865e-17
1562.0 1.0289961101734583e-17
1566.0 4.8088997735375255e-17
1569.0 6.334075953302089e-18
1574.0 6.513740742485002e-17
1581.0 4.381790814964559e-17
1611.0 2.5282431712951186e-17
1621.0 4.3928549782108186e-18
1630.0 7.359104309614187e-17
1633.0 3.0176750057449366e-17
1640.0 4.1655207083403345e-16
1641.0 2.648910745626637e-16
1643.0 8.390430206540615e-18
1649.0 2.2652519061471567e-17
1650.0 6.745306895503577e-17
1655.0 7.861207092516517e-17
1656.0 1.5017119531135944e-16
1657.0 2.190599006103e-16
1658.0 2.1266374160141312e-17
1659.0 9.971814674800461e-17
1660.0 1.9052209866294174e-17
1662.0 1.5805575548880023e-16
1664.0 5.442018489947707e-17
1665.0 3.0016782541734476e-17
1666.0 3.947752484188775e-17
1668.0 1.2024105312413528e-16
1669.0 1.0219774070388919e-17
1670.0 1.1198476827120583e-16
1671.0 4.1226453403783423e-16
1672.0 8.654575035760252e-17
1673.0 2.0005236206272936e-17
1675.0 1.3014483994560412e-16
1676.0 3.752617123491693e-17
1678.0 5.5313721743450136e-17
1679.0 7.507438141434154e-17
1680.0 1.1770487900867718e-16
1681.0 5.807390618753736e-17
1684.0 1.062825181366193e-17
1685.0 1.150204952602746e-17
1686.0 5.751120271232141e-17
1687.0 9.368939508894904e-18
1688.0 3.273156524744686e-17
1689.0 1.5264907449265544e-16
1690.0 1.5536854890727097e-17
1691.0 5.412160881131187e-17
1692.0 1.742278014086178e-16
1693.0 2.9940972955502606e-17
1694.0 1.369958538088361e-16
1698.0 5.2215083161367054e-17
1700.0 3.366514573763437e-17
1701.0 1.1409094122145805e-16
1702.0 2.2529371497466473e-16
1703.0 2.0689188224881306e-16
1704.0 1.9222148573240476e-17
1705.0 7.864750643992714e-17
1706.0 1.8944878219323502e-16
1709.0 4.530883352241553e-16
1710.0 5.304207185693353e-16
1711.0 8.919743639779435e-16
1712.0 5.875465430576477e-17
1713.0 8.51592421381237e-17
1714.0 1.1963875687013224e-16
1723.0 2.3632943604998105e-16
1724.0 3.0898771251556904e-16
1725.0 3.57154250162424e-16
1726.0 1.0035356515916658e-16
1727.0 1.858260025403922e-16
1728.0 2.8275323124703267e-16
1729.0 3.1683549312920686e-16
1730.0 2.205359050911836e-16
1731.0 4.568021197744439e-17
1732.0 9.925712253719876e-17
1733.0 1.078184799390957e-16
1734.0 9.601964238854563e-17
1742.0 1.5418015653916673e-17
1743.0 1.0385060264977516e-16
1744.0 7.79618365915489e-17
1745.0 2.7494730754831864e-17
1746.0 6.64522714161746e-17
1747.0 1.1995894199147587e-17
1751.0 1.604785950510591e-17
1752.0 1.6625777399030993e-16
1753.0 2.1798611824925477e-16
1757.0 3.146465235153799e-16
1758.0 2.863284271523301e-16
1759.0 2.1284338789918073e-16
1760.0 5.862560729159579e-16
1761.0 5.855945141944199e-16
1762.0 4.3923290010805123e-16
1763.0 3.449432107977651e-17
1768.0 7.844795519955754e-17
1769.0 2.1230036002756677e-16
1770.0 3.272870934171525e-16
1771.0 1.425373116391562e-16
1772.0 4.1155660048488844e-17
1784.0 3.713160726205844e-17
1785.0 1.5193008253017062e-16
1786.0 1.0214073365797802e-16
1787.0 4.2502127457224454e-17
1788.0 3.5156793308612404e-16
1789.0 3.9270136983740236e-16
1790.0 4.06782986158356e-16
1791.0 2.0642758142138055e-16
1792.0 1.9147790399469353e-16
1793.0 3.0449890759021474e-16
1794.0 4.973241136644334e-16
1795.0 6.061877056024343e-16
1796.0 7.461439566673323e-16
1797.0 5.72990196009923e-16
1798.0 4.3141280672315358e-16
1801.0 2.4042786488218308e-17
1802.0 3.133017005797865e-16
1803.0 2.0397756896160642e-16
1809.0 5.226246462348962e-17
1810.0 3.374774287525476e-16
1811.0 5.039607696090867e-16
1812.0 5.803891927450653e-16
1813.0 3.620189175347972e-17
1814.0 3.964453164878188e-17
1815.0 4.306951146422391e-17
1816.0 2.0937287275092306e-16
1817.0 3.6136090599659816e-16
1818.0 5.798908525724949e-16
1819.0 1.4199738658643068e-16
1820.0 2.9824330318231604e-17
1824.0 2.6760283072452115e-16
1825.0 3.095357372316237e-16
1826.0 3.1331906288936784e-16
1827.0 6.502575162130566e-17
1828.0 7.318710969309336e-17
1829.0 8.059989984969791e-17
1830.0 2.8301487880374677e-16
1831.0 1.5028322383404034e-16
1835.0 3.3406579694081924e-16
1836.0 1.0782389070572131e-16
1837.0 6.571278781602683e-17
1838.0 1.7888497771700928e-16
1844.0 1.4406908848722864e-16
1845.0 1.2884480772323734e-16
1846.0 1.0639813305517689e-16
1847.0 2.3685886169915612e-16
1848.0 7.760590005899955e-17
1850.0 1.4862371137025463e-16
1851.0 1.9934037211596834e-16
1858.0 1.901570531750324e-16
1859.0 6.946239324741996e-17
1864.0 1.7561337097390065e-16
1865.0 2.1695759206983912e-16
1866.0 1.3389900133911066e-16
1867.0 2.5946350061986017e-16
1868.0 3.515595867124403e-16
1869.0 5.73339840362887e-16
1870.0 3.9107490639700124e-16
1871.0 2.4829327349796465e-16
1877.0 8.820651024495313e-17
1878.0 1.240988639932698e-16
1879.0 6.33281859248837e-17
1882.0 4.878026125347034e-17
1883.0 2.1892842573651686e-16
1884.0 8.460394943406428e-17
1888.0 1.7996192458299693e-16
1889.0 8.526854690291551e-17
1895.0 2.406973708910766e-16
1896.0 2.42877112131478e-16
1900.0 1.1157727064459085e-16
1901.0 1.216263986008804e-16
1902.0 1.3042493815104955e-16
1903.0 1.110181935638334e-16
1908.0 3.7538819774030743e-17
1916.0 8.759021723294667e-17
1917.0 1.1066571505662435e-16
1918.0 1.0168323868576753e-16
1919.0 9.071113013677318e-17
1920.0 1.0274201705463736e-16
1921.0 9.205608395667495e-17
1922.0 6.905422990858371e-17
1923.0 7.216779368588094e-17
1924.0 6.622215811315355e-17
1925.0 4.442158483955716e-17
1928.0 5.1316761516350483e-17
1931.0 2.9927585288972895e-16
1932.0 1.6677736062025986e-16
1936.0 1.4336098658638214e-16
1939.0 5.883056214246557e-17
1940.0 2.249906954965806e-16
1941.0 2.986720960422401e-16
1942.0 3.2846523264772413e-16
1943.0 3.4512416996506787e-16
1944.0 3.5120878229325466e-16
1945.0 2.5839013596797574e-16
1946.0 1.706228819319908e-16
1947.0 8.19691349362207e-17
1953.0 9.64445663083221e-17
1957.0 1.4311405576572103e-16
1958.0 1.9959888382396555e-16
1959.0 7.508653218769604e-17
1962.0 7.288534757015388e-17
1963.0 7.577562020316703e-17
1964.0 7.21299107671856e-17
1965.0 9.986157267454095e-17
1966.0 1.1473580472402064e-16
1967.0 1.378299469917936e-16
1968.0 1.3544645275409334e-16
1969.0 1.4982604443606566e-16
1970.0 2.0894047424111543e-16
1971.0 2.2059833322204373e-16
1972.0 2.1105736230478299e-16
1973.0 6.228471016822985e-17
1976.0 6.996938707523283e-17
1980.0 6.31933438082407e-17
1981.0 2.675100711341318e-16
1982.0 2.5754021680423755e-16
1983.0 1.9104111415435767e-16
1985.0 8.697621338516906e-17
1986.0 1.3959653786976676e-16
1987.0 1.1569843800311625e-16
1988.0 1.273486403606487e-16
1989.0 1.3586585281729537e-16
1990.0 1.0354022124730547e-16
1991.0 1.805526610250712e-16
1992.0 2.70581050729875e-16
1993.0 1.2426911616126864e-16
1994.0 7.982412517775612e-17
1996.0 9.795799126550196e-17
1997.0 9.359949037307488e-17
2000.0 7.359661328626179e-17
2001.0 1.0567115980214988e-16
2002.0 8.929392115676618e-17
2003.0 7.490734696467654e-17
2005.0 6.234094307138163e-17
2006.0 1.3480659722790571e-16
2007.0 1.755440765135351e-16
2008.0 1.5600969131338202e-16
2009.0 1.1871993813659492e-16
2010.0 9.798384611728403e-17
2013.0 9.291394026978236e-17
2014.0 1.4714813445331745e-16
2015.0 1.6098522725812573e-16
2016.0 1.1801373560998767e-16
2017.0 8.936774785163157e-17
2019.0 8.624643259010787e-17
2020.0 1.082505642131771e-16
2021.0 2.1285820481270948e-16
2022.0 1.712970848618636e-16
2023.0 1.0158126403728751e-16
2024.0 2.039198835465358e-16
2025.0 2.0053536051861584e-16
2026.0 1.4831468290298014e-16
2030.0 1.2630464550644454e-16
2031.0 1.7701659111209502e-16
2032.0 2.697940502255267e-16
2033.0 2.02125872020208e-16
2034.0 1.4222593847077754e-16
2038.0 7.398191292268804e-17
2041.0 1.3484552743705558e-16
2042.0 1.866372167739987e-16
2043.0 2.9242749328059947e-16
2044.0 2.475918625489515e-16
2045.0 2.0506200942327428e-16
2047.0 7.871647285415544e-17
2048.0 1.0915460783161472e-16
2049.0 9.673700437992427e-17
2050.0 8.720560944228857e-17
2053.0 9.454733839098987e-17
2054.0 2.0695715554689916e-16
2055.0 1.4141992013841107e-16
2056.0 1.3026266007292653e-16
2057.0 1.5054186912330415e-16
2058.0 1.7136044801375442e-16
2059.0 1.815607423753719e-16
2060.0 1.838499008626573e-16
2061.0 2.0579623523707405e-16
2062.0 2.168287244343363e-16
2067.0 1.0725694542634026e-16
2068.0 1.6156906608598828e-16
2069.0 9.614597855596455e-17
2074.0 1.0031315896154988e-16
2075.0 1.865747957965993e-16
2076.0 2.4361973123732493e-16
2077.0 2.295796646907702e-16
2078.0 1.9841148818574326e-16
2079.0 1.66429338331402e-16
2081.0 1.3643687362711068e-16
2082.0 2.5927522318342774e-16
2083.0 2.0166855343480608e-16
2084.0 1.507250489301842e-16
2089.0 1.3586024492523244e-16
2090.0 1.9925175568107935e-16
2091.0 2.3434985024214483e-16
2092.0 1.1413205659437924e-16
2096.0 2.093320205020373e-16
2097.0 2.1908875954700644e-16
2098.0 2.1091712383446722e-16
2099.0 1.880954534895873e-16
2100.0 1.3174324896821629e-16
2101.0 1.1853019719346124e-16
2102.0 1.3929876322137742e-16
2108.0 1.686639235214847e-16
2109.0 1.5584076513169522e-16
2110.0 1.3692574167353078e-16
2111.0 1.400632222188156e-16
2112.0 1.6511949217791862e-16
2113.0 2.1515248202654785e-16
2114.0 2.186498258328892e-16
2115.0 2.0304310170649537e-16
2116.0 1.4393109340211693e-16
2117.0 1.979881419974736e-16
2118.0 2.2092875824418485e-16
2119.0 1.9020456634366264e-16
2120.0 1.4483837320171657e-16
2125.0 1.3895536815325393e-16
2126.0 1.6267095239197582e-16
