#WAVELENGTH FLUX
1001.06 6.506732960358449e-22
1004.32 7.034808371105283e-22
1005.84 7.285927845488387e-22
1007.58 7.578422112602368e-22
1009.33 7.87118978143043e-22
1011.3 8.19325700061747e-22
1012.82 8.426286394918904e-22
1014.33 8.647468381610173e-22
1015.09 8.744389289251775e-22
1015.84 8.844545450509998e-22
1016.6 8.918774015882902e-22
1017.36 8.953131497952373e-22
1018.11 8.973727760413118e-22
1018.4 8.964751070800803e-22
1018.87 8.956503452426035e-22
1019.33 8.908020215129061e-22
1019.8 8.836343399087576e-22
1020.26 8.738055482875572e-22
1020.41 8.701282952331722e-22
1020.73 8.610149047638161e-22
1021.04 8.500742795053541e-22
1021.36 8.379261300097026e-22
1021.68 8.2297105624948945e-22
1022.0 8.059836964146098e-22
1022.16 7.967609452596215e-22
1022.32 7.876384413997962e-22
1022.48 7.760416520275407e-22
1022.64 7.646225737694377e-22
1022.88 7.467922253161427e-22
1022.96 7.389319260363231e-22
1023.04 7.312447811754213e-22
1023.21 7.161757900343412e-22
1023.38 6.993433578374407e-22
1023.54 6.784691369673807e-22
1023.71 6.585381520108992e-22
1024.04 6.102098423519043e-22
1024.21 5.809558589452715e-22
1024.38 5.491182293405764e-22
1024.54 5.103863198458133e-22
1024.62 4.881542037958194e-22
1024.67 4.719688223222431e-22
1024.7 4.5953360102680685e-22
1024.79 4.290319944649193e-22
1024.85 4.081860251053144e-22
1024.91 3.9147115564546854e-22
1024.95 3.8688757590890595e-22
1024.98 3.8551327662612703e-22
1024.99 3.8550461890518117e-22
1025.01 3.8562354865080625e-22
1025.03 3.857538701345181e-22
1025.04 3.8587553389728396e-22
1025.06 3.8600585538099575e-22
1025.07 3.8613754387327793e-22
1025.09 3.862592076360438e-22
1025.1 3.863895291197556e-22
1025.13 3.8664834940908535e-22
1025.2 3.902631757387554e-22
1025.27 4.0896886534663207e-22
1025.32 4.260856353261765e-22
1025.37 4.45245171779427e-22
1025.47 4.822487267716766e-22
1025.57 5.158270139560188e-22
1025.67 5.448805027723259e-22
1025.77 5.69769172144137e-22
1025.87 5.922473497368035e-22
1025.97 6.132537147686692e-22
1026.07 6.325604324779999e-22
1026.27 6.687132524699351e-22
1026.47 7.009382011695779e-22
1026.66 7.296681646242228e-22
1026.76 7.457168452407587e-22
1026.86 7.614146603242244e-22
1026.97 7.74182520371792e-22
1027.07 7.869458237241252e-22
1027.28 8.131468213235236e-22
1027.48 8.370649146103486e-22
1027.69 8.6018102953587e-22
1028.1 9.03328376713036e-22
1028.51 9.424111517408692e-22
1028.78 9.660102763612665e-22
1028.8 9.673499447602617e-22
1028.92 9.780171683046431e-22
1029.07 9.895364938579091e-22
1029.34 1.0116865893936788e-21
1029.88 1.0517672806779065e-21
1030.42 1.0927593110090699e-21
1030.96 1.1321564980080958e-21
1031.51 1.1671017937628413e-21
1032.0 1.195590252370048e-21
1032.05 1.1984473002821912e-21
1032.59 1.2271544802606627e-21
1033.19 1.2566818653813761e-21
1033.78 1.281857606552972e-21
1034.38 1.3041398462505474e-21
1034.86 1.3251370978919437e-21
1035.56 1.35773569560083e-21
1036.27 1.3929817332410645e-21
1036.97 1.4272161845392002e-21
1037.39 1.4461857068011648e-21
1037.67 1.4577414859163082e-21
1038.37 1.486712954218391e-21
1039.34 1.5228429907341527e-21
1040.19 1.5528488288545074e-21
1040.32 1.5575012146891136e-21
1042.27 1.6255873548856723e-21
1044.35 1.6983942313453573e-21
1047.66 1.8170824721230154e-21
1047.72 1.8194018299974664e-21
1048.51 1.84800420598554e-21
1049.35 1.8792540219049616e-21
1051.04 1.9426103124479246e-21
1051.85 1.973477365967633e-21
1054.35 2.070575984723387e-21
1056.85 2.170568104953161e-21
1059.36 2.275686507321948e-21
1061.86 2.386642036286357e-21
1064.36 2.5018808587713638e-21
1066.86 2.618637060769518e-21
1069.36 2.737266064509125e-21
1071.86 2.8638738416046534e-21
1074.36 2.9948150358683603e-21
1076.29 3.0993592946375777e-21
1076.86 3.1318804285274742e-21
1078.98 3.2558088688250118e-21
1079.36 3.27890220027436e-21
1082.44 3.461046978890144e-21
1085.9 3.6720994320747246e-21
1089.37 3.892525007357038e-21
1091.29 4.023712263163417e-21
1092.83 4.131204703749472e-21
1094.37 4.241130419590844e-21
1095.52 4.325073859204082e-21
1097.45 4.468413821201348e-21
1099.37 4.615795571871773e-21
1102.07 4.8225328346691144e-21
1103.22 4.913211069839206e-21
1103.98 4.973815116460423e-21
1104.37 5.005301880532048e-21
1106.68 5.193949063247718e-21
1106.88 5.210262032187865e-21
1109.38 5.422285061457432e-21
1111.88 5.658048472899672e-21
1114.38 5.9026063061448406e-21
1116.88 6.156323096811711e-21
1118.68 6.345289248193808e-21
1119.38 6.419517813566712e-21
1120.08 6.4945210171295116e-21
1121.47 6.646805771872451e-21
1123.78 6.906127297677977e-21
1124.25 6.959076096304934e-21
1124.73 7.010475618552101e-21
1125.68 7.114277135998067e-21
1125.79 7.12612454360823e-21
1127.08 7.268384568834876e-21
1127.59 7.32579892879182e-21
1127.85 7.354870644389065e-21
1129.38 7.52998444225774e-21
1131.69 7.797599153390379e-21
1134.38 8.11629441810376e-21
1135.54 8.25481795323797e-21
1139.39 8.719828701936861e-21
1144.39 9.333524416143293e-21
1146.89 9.636954751820501e-21
1149.39 9.9341424150262e-21
1151.89 1.0210733815771154e-20
1154.39 1.0470602145004841e-20
1156.89 1.0707003493779936e-20
1159.39 1.0919254357811236e-20
1161.89 1.1110908959381793e-20
1164.39 1.1272124836784701e-20
1165.64 1.1336738775212436e-20
1166.89 1.1394016434312338e-20
1168.14 1.1433978651520463e-20
1169.39 1.1458675939692418e-20
1170.65 1.1467652629304734e-20
1171.9 1.1458539238835379e-20
1174.4 1.1413974759440227e-20
1176.9 1.1368909043569261e-20
1177.86 1.1358838747100623e-20
1179.4 1.1363668844049382e-20
1180.94 1.139483663945458e-20
1182.47 1.1455440686075798e-20
1182.86 1.1474943341680219e-20
1184.01 1.1549582009624245e-20
1185.17 1.1644133435743812e-20
1186.32 1.1758460919181885e-20
1187.48 1.188901023765541e-20
1187.87 1.1934668323906884e-20
1188.63 1.2032181601928992e-20
1189.4 1.2132930133567723e-20
1190.93 1.2339712963317408e-20
1193.59 1.2696228798478615e-20
1194.0 1.2750180070057204e-20
1194.25 1.2783124976603927e-20
1194.4 1.2802901033922428e-20
1195.21 1.2907705024320022e-20
1196.83 1.3121641865588154e-20
1196.9 1.313203113072322e-20
1199.4 1.3483261199412199e-20
1200.65 1.3659605304994238e-20
1201.9 1.382145911973e-20
1203.15 1.3950504728776083e-20
1204.4 1.4027011641766326e-20
1205.03 1.404382584718229e-20
1205.65 1.4045557391371465e-20
1206.28 1.4030155761478253e-20
1206.9 1.3993838900457872e-20
1207.53 1.3938019383833064e-20
1208.15 1.3857593712941e-20
1208.48 1.3807515632311886e-20
1208.78 1.375720971692104e-20
1208.94 1.3726360890182273e-20
1209.4 1.3627708438351492e-20
1209.87 1.3509553330916291e-20
1210.33 1.3364923824167612e-20
1210.79 1.3201748567813793e-20
1211.24 1.3008180154244671e-20
1211.64 1.280855133601343e-20
1211.7 1.2771915506326617e-20
1211.9 1.2656221014318143e-20
1212.16 1.2484843706541903e-20
1212.43 1.2293052404114305e-20
1212.69 1.2074695568468536e-20
1212.95 1.1844628026069646e-20
1213.22 1.1592506078734911e-20
1213.61 1.1204321211692693e-20
1213.74 1.1077371682454563e-20
1213.88 1.096053801663742e-20
1214.14 1.0751613540127433e-20
1214.33 1.0566885115313586e-20
1214.4 1.0577228813496306e-20
1214.44 1.058397272244363e-20
1214.47 1.0587618078631372e-20
1214.6 1.060844217585385e-20
1214.62 1.0610264853947721e-20
1214.76 1.0632911629264071e-20
1214.84 1.064425780039842e-20
1214.91 1.0655649538485114e-20
1214.95 1.0661299840576115e-20
1214.98 1.0666995709619462e-20
1215.0 1.0669911994569656e-20
1215.02 1.0672691578662811e-20
1215.04 1.0675471162755964e-20
1215.06 1.0678387447706158e-20
1215.08 1.0681167031799312e-20
1215.1 1.0683901048940118e-20
1215.11 1.0686862900842659e-20
1215.13 1.0689642484935813e-20
1215.17 1.069533835397916e-20
1215.24 1.0706730092065855e-20
1215.39 1.0729559135191591e-20
1215.64 1.07676531073535e-20
1215.69 1.0775399489252451e-20
1215.74 1.0783145871151406e-20
1215.84 1.0798684201901657e-20
1216.04 1.1016129698500492e-20
1216.11 1.1079103226643742e-20
1216.19 1.1161032606963252e-20
1216.24 1.1202589667503515e-20
1216.28 1.1247473115565093e-20
1216.45 1.1432019272569551e-20
1216.78 1.1837018345027732e-20
1216.89 1.1972169925688282e-20
1217.46 1.2707164867041843e-20
1217.52 1.2780709928129547e-20
1218.15 1.3587609520286327e-20
1218.78 1.434575247343205e-20
1218.98 1.4581379184017252e-20
1219.41 1.5041787670529116e-20
1219.83 1.5493265034381015e-20
1220.67 1.633160582365707e-20
1221.52 1.7096720520511854e-20
1222.36 1.778961159789699e-20
1223.2 1.8431330987796693e-20
1223.48 1.863118764078967e-20
1224.05 1.9022015391068003e-20
1224.62 1.939393285612242e-20
1225.76 2.0085183523223073e-20
1226.66 2.0599406580456487e-20
1226.89 2.0730548269310518e-20
1228.03 2.1339094917901766e-20
1228.64 2.1650134934620884e-20
1229.41 2.2030208884145377e-20
1230.18 2.2394379967300842e-20
1231.72 2.308927599058924e-20
1234.74 2.4402971226746906e-20
1234.79 2.4424752229968666e-20
1234.84 2.444635096538104e-20
1234.94 2.4489867404872214e-20
1235.14 2.457690028385456e-20
1235.55 2.4751421711342732e-20
1236.35 2.5100145597652638e-20
1236.48 2.5159245934846415e-20
1237.94 2.580556758693314e-20
1239.41 2.644077090264725e-20
1240.27 2.6820115780934197e-20
1242.34 2.7697325180562055e-20
1244.41 2.8588204665893953e-20
1247.69 2.992864770307918e-20
1247.85 2.9995357721314866e-20
1248.55 3.0288717760523436e-20
1249.41 3.0652433174155435e-20
1251.13 3.1391255739506125e-20
1254.41 3.2885350540004694e-20
1255.97 3.364604524248184e-20
1257.69 3.4540478950096784e-20
1257.85 3.462477781193833e-20
1259.41 3.550631607203913e-20
1259.49 3.5552703229528155e-20
1261.13 3.65221401407059e-20
1262.77 3.7538511012800824e-20
1264.41 3.860331955524038e-20
1265.97 3.9667216758633e-20
1266.05 3.972289957440077e-20
1267.69 4.089661313294912e-20
1269.41 4.217267006646835e-20
1271.3 4.36076189628208e-20
1272.86 4.481541660172455e-20
1274.41 4.603993731213957e-20
1275.65 4.702600616092389e-20
1277.54 4.855887843786957e-20
1279.42 5.0090383706244844e-20
1281.94 5.207619148951751e-20
1283.18 5.3045856235457e-20
1284.38 5.398271277570679e-20
1284.42 5.4014153972826076e-20
1286.9 5.598264631420696e-20
1289.42 5.801447671934989e-20
1294.42 6.203803861157057e-20
1299.42 6.637100011022586e-20
1304.42 7.086390161161839e-20
1309.42 7.551811012431848e-20
1314.42 8.009622182659947e-20
1319.42 8.506256396287502e-20
1321.92 8.767765135805673e-20
1324.42 9.038068297126772e-20
1326.92 9.327874114052292e-20
1329.42 9.625745281543193e-20
1334.42 1.0195833422353758e-19
1339.42 1.0778634742869073e-19
1341.92 1.1074819933123143e-19
1344.42 1.1377794599276883e-19
1346.92 1.170560325445962e-19
1349.42 1.2044439112110275e-19
1354.42 1.274740048596405e-19
1359.42 1.3500850043018057e-19
1364.42 1.4249651770932693e-19
1365.19 1.4364662758655965e-19
1369.42 1.5010984410742692e-19
1373.65 1.567922376690822e-19
1376.35 1.6113567956677727e-19
1377.88 1.6365963305726545e-19
1379.42 1.6621912877058406e-19
1380.57 1.6815709125389262e-19
1382.5 1.7143563347524344e-19
1384.42 1.7491421461739663e-19
1387.12 1.7995574222504437e-19
1388.27 1.8214751263292448e-19
1389.03 1.836047437689745e-19
1389.42 1.8436069950840758e-19
1391.73 1.8885587935741742e-19
1394.42 1.9426558794002715e-19
1399.42 2.0476877045595994e-19
1404.42 2.1515028920912683e-19
1409.42 2.258434859163457e-19
1414.42 2.369349377870754e-19
1419.42 2.478131363208222e-19
1424.42 2.594272411349695e-19
1429.42 2.7166105650103296e-19
1434.42 2.8454328959899116e-19
1439.42 2.981627959859202e-19
1444.42 3.128389999977711e-19
1449.42 3.2859286243262335e-19
1454.42 3.442997909065584e-19
1459.42 3.603771787030728e-19
1464.42 3.768195577878849e-19
1465.96 3.819718130897353e-19
1469.42 3.931935864441768e-19
1472.88 4.0393280577326595e-19
1473.27 4.050724352514589e-19
1474.42 4.0851228448411734e-19
1476.35 4.142929080588298e-19
1479.42 4.2414038213049244e-19
1484.42 4.410024328464184e-19
1489.42 4.59023251160523e-19
1494.42 4.772409187087656e-19
1496.92 4.865821439398555e-19
1499.42 4.965704198942696e-19
1501.92 5.069733551150396e-19
1504.42 5.185382476206523e-19
1509.42 5.429758041642304e-19
1514.42 5.6926793566832245e-19
1519.42 5.957924586293831e-19
1524.42 6.222258476857502e-19
1529.42 6.494794418843592e-19
1534.42 6.77375530111058e-19
1539.42 7.040914342719751e-19
1544.42 7.278454865303515e-19
1549.42 7.488700783431558e-19
1554.42 7.690653516232487e-19
1559.42 7.89976026055186e-19
1564.42 8.12590904504893e-19
1566.72 8.236408904489871e-19
1569.42 8.370375744389405e-19
1570.19 8.409426622550594e-19
1572.11 8.507623404857905e-19
1574.41 8.628011292958098e-19
1574.8 8.648197452847721e-19
1579.41 8.89444126332972e-19
1584.41 9.16843534779091e-19
1589.41 9.454094572052873e-19
1594.41 9.761261397822516e-19
1599.41 1.0110532087560585e-18
1601.91 1.0294895976755658e-18
1604.41 1.0481902749186841e-18
1606.91 1.0697707835501194e-18
1609.41 1.0919254357811237e-18
1611.91 1.1160440236582744e-18
1614.41 1.1414612696773082e-18
1616.91 1.1686146165807544e-18
1619.41 1.1975359612352556e-18
1621.91 1.2280658193075983e-18
1624.41 1.2602452010548943e-18
1626.91 1.294101446648552e-18
1629.41 1.3295798757457546e-18
1631.91 1.3667579521654925e-18
1634.41 1.4056037790411224e-18
1639.41 1.4877564374271321e-18
1644.41 1.5760424075990185e-18
1649.41 1.670306761918802e-18
1654.41 1.7713605921382562e-18
1659.41 1.8798555056759394e-18
1664.41 1.9958917498270146e-18
1665.56 2.0236374671109686e-18
1669.4 2.118790377001515e-18
1670.17 2.138274805824998e-18
1673.25 2.2178255912320065e-18
1674.4 2.248542273808971e-18
1676.33 2.300607073560402e-18
1676.9 2.31648259975802e-18
1679.4 2.3873027570953853e-18
1681.9 2.46166802332533e-18
1684.4 2.5406902320851164e-18
1686.9 2.625066557745649e-18
1689.4 2.7152936800875078e-18
1691.9 2.8115356401391415e-18
1694.4 2.913619283481633e-18
1696.9 3.021512713248339e-18
1699.4 3.133985621725896e-18
1701.9 3.251056235695243e-18
1704.4 3.370573795005612e-18
1709.4 3.6145210310893334e-18
1714.4 3.871869507858243e-18
1716.9 4.006232780243193e-18
1719.4 4.148410784955615e-18
1721.9 4.302057991573724e-18
1724.4 4.461186902559148e-18
1729.4 4.7818415462234396e-18
1734.4 5.115254936544829e-18
1739.4 5.435727312399732e-18
1741.9 5.592796597139083e-18
1744.4 5.7469495969282395e-18
1746.89 5.887432511013362e-18
1749.39 6.0276875903367515e-18
1754.39 6.303686620701198e-18
1759.39 6.549292493850342e-18
1764.39 6.799956298709979e-18
1767.08 6.938798802510617e-18
1767.85 6.978988854480478e-18
1769.39 7.060371431371826e-18
1771.7 7.191832088892286e-18
1774.39 7.354870644389065e-18
1775.55 7.425909523097695e-18
1776.89 7.50961601455873e-18
1778.14 7.588264574309273e-18
1779.39 7.66782447310675e-18
1780.64 7.776410520549127e-18
1781.89 7.886819246085375e-18
1783.14 7.999050649715493e-18
1784.39 8.113150298391832e-18
1786.89 8.347501134311321e-18
1788.14 8.467706754602126e-18
1789.39 8.589962887748538e-18
1790.64 8.68064112291863e-18
1791.89 8.772276264088004e-18
1793.14 8.864822744304313e-18
1794.39 8.958326130519906e-18
1796.89 9.147656817520778e-18
1799.39 9.340906262423471e-18
1804.39 9.723030724803568e-18
1809.39 1.0123017432503603e-17
1814.38 1.0541823291522859e-17
1824.38 1.1413108987345639e-17
1834.0 1.2296880028111436e-17
1834.38 1.2333606991702941e-17
1834.77 1.2370379522246793e-17
1835.54 1.2441691802669503e-17
1837.08 1.258550110427594e-17
1840.16 1.287785867053288e-17
1843.24 1.317773478392704e-17
1846.32 1.3483853569792709e-17
1847.86 1.3639236877295228e-17
1848.62 1.3717520901426997e-17
1849.39 1.3797035233272127e-17
1850.16 1.3917650956134054e-17
1850.93 1.4039314718899958e-17
1851.7 1.4161935387665143e-17
1852.47 1.4285239560715527e-17
1853.24 1.4409637340622238e-17
1854.01 1.4535174294337618e-17
1854.78 1.4661987122718706e-17
1855.55 1.478984799100377e-17
1856.32 1.4918939167002198e-17
1857.09 1.504921508376164e-17
1857.86 1.5180493473472715e-17
1858.63 1.5313047737849497e-17
1860.17 1.553249818035159e-17
1861.71 1.5708022080791385e-17
1862.52 1.5800614127960044e-17
1863.25 1.5885368659325055e-17
1866.33 1.624557541762635e-17
1870.14 1.6702065146236394e-17
1873.96 1.7206536875667593e-17
1877.77 1.7727184873181903e-17
1885.4 1.8824756054358792e-17
1893.03 1.9985710866250053e-17
1900.65 2.1213831365900468e-17
1908.28 2.251809424292235e-17
1912.44 2.326006092798497e-17
1915.9 2.3893213730843477e-17
1919.37 2.4540674556738875e-17
1922.83 2.5154962641325814e-17
1926.29 2.5782100606474548e-17
1928.02 2.610061360337854e-17
1929.76 2.6457767375872602e-17
1931.48 2.6942371914080608e-17
1933.22 2.743481396809226e-17
1934.95 2.793855662628591e-17
1935.81 2.819323032295207e-17
1936.25 2.832136459295121e-17
1936.46 2.838561399576017e-17
1936.68 2.8449908965521474e-17
1936.89 2.8514477336996865e-17
1937.0 2.8546693172306035e-17
1937.11 2.857904570847225e-17
1937.22 2.929020913374845e-17
1937.33 2.932356414286629e-17
1937.44 2.9357192553698216e-17
1937.55 2.93906842636731e-17
1937.65 2.9424221540600325e-17
1937.76 2.945784995143225e-17
1937.87 2.949147836226417e-17
1937.98 2.9525106773096097e-17
1938.09 2.955891745173741e-17
1938.19 2.9592545862569333e-17
1938.3 2.96263109742583e-17
1938.41 2.966012165289961e-17
1938.52 2.969388676458857e-17
1938.63 2.972783414408692e-17
1938.73 2.9761735956632925e-17
1938.84 2.9795683336131274e-17
1938.95 2.982963071562963e-17
1939.06 2.986353252817563e-17
1939.17 2.9897616608531026e-17
1939.28 2.993165512193407e-17
1939.38 2.996346085467212e-17
1939.49 2.9985925362179084e-17
1939.6 3.000825316882901e-17
1939.71 3.003071767633597e-17
1939.82 3.005309104993824e-17
1939.93 3.00755555574452e-17
1940.03 3.009802006495216e-17
1940.14 3.012048457245912e-17
1940.25 3.014294907996609e-17
1940.36 3.01654591544254e-17
1940.47 3.01880603627894e-17
1940.58 3.0210524870296365e-17
1940.68 3.023303494475567e-17
1940.79 3.025563615311967e-17
1940.9 3.027823736148368e-17
1941.01 3.030070186899064e-17
1941.12 3.032334864430699e-17
1941.22 3.034594985267099e-17
1941.33 3.0368596627987344e-17
1941.44 3.0391197836351344e-17
1941.55 3.041379904471535e-17
1941.66 3.0436582520888735e-17
1941.77 3.045918372925274e-17
1941.87 3.048196720542613e-17
1941.98 3.050456841379013e-17
1942.09 3.052735188996352e-17
1942.2 3.055008979918457e-17
1942.31 3.0572736574500913e-17
1942.41 3.059547448372196e-17
1942.52 3.061839466075239e-17
1942.63 3.064113256997343e-17
1942.74 3.066391604614682e-17
1942.85 3.068665395536787e-17
1942.95 3.0709574132398297e-17
1943.06 3.073231204161934e-17
1943.17 3.075523221864977e-17
1943.28 3.07781523956802e-17
1943.39 3.0800890304901244e-17
1943.5 3.0823810481931674e-17
1943.6 3.08467306589621e-17
1943.71 3.086974196989723e-17
1943.93 3.091558232395809e-17
1944.36 3.1007490866841543e-17
1945.23 3.1191991456893656e-17
1946.09 3.1377540086849743e-17
1946.96 3.1563772221091035e-17
1947.82 3.1751006828283955e-17
1948.26 3.1844920317070665e-17
1948.47 3.189199097884489e-17
1948.58 3.191564022711287e-17
1948.69 3.193910720757146e-17
1948.8 3.196271088888709e-17
1948.91 3.198636013715507e-17
1949.01 3.2009963818470706e-17
1949.12 3.3178801713117956e-17
1949.23 3.3203453434337564e-17
1949.34 3.322792288774779e-17
1949.45 3.325252904201505e-17
1949.56 3.327713519628231e-17
1949.66 3.3301786917501914e-17
1949.77 3.3326393071769176e-17
1949.88 3.335118149384583e-17
1949.99 3.3375787648113085e-17
1950.1 3.340057607018974e-17
1950.2 3.3425182224457e-17
1950.31 3.34499250795813e-17
1950.42 3.3474713501657947e-17
1950.53 3.349945635678225e-17
1950.74 3.35489876339832e-17
1951.18 3.3648369157051524e-17
1952.04 3.3847770140521037e-17
1953.78 3.424916942374382e-17
1957.24 3.506354199608547e-17
1959.73 3.5661380410875227e-17
1964.16 3.6750066036344493e-17
1968.59 3.7865909565412444e-17
1977.44 4.0155785621695175e-17
1986.3 4.256062709874884e-17
1995.16 4.508754244113952e-17
2004.01 4.774459699943261e-17
2007.92 4.895850060995083e-17
2012.87 5.0539673856384094e-17
2015.34 5.1352132616727184e-17
2017.81 5.217416043706309e-17
2019.05 5.258881970341879e-17
2020.28 5.3204429229623786e-17
2021.52 5.3889300523395894e-17
2022.76 5.457918418192614e-17
2023.99 5.527499154426147e-17
2025.23 5.597717827992536e-17
2026.47 5.668483304987084e-17
2027.7 5.739886719314489e-17
2028.94 5.811882504022402e-17
2030.18 5.863509861031303e-17
2031.41 5.905066921571567e-17
